0.97794
0.98826
0.59230
0.34925
0.10769
0.20625
0.22882
0.01177
0.17803
0.01735
0.07423
0.15316
0.00717
0.19548
0.03232
0.11860
0.16810
0.01719
0.21527
0.06680
0.15550
0.19762
0.06384
0.26925
0.12810
0.17755
0.25395
0.11033
0.32060
0.15490
0.24107
0.29537
0.16396
0.33742
0.20109
0.25535
0.31941
0.15609
0.35890
0.20781
0.26447
0.31131
0.15528
0.35559
0.20689
0.24388
0.30046
0.14682
0.34216
0.18114
0.23766
0.30888
0.15517
0.35289
0.19914
0.27520
0.32428
0.19010
0.38774
0.25107
0.31724
0.37604
0.25403
0.50305
0.35894
0.42993
0.47394
0.31752
0.48311
0.30950
0.32647
0.38018
0.22122
0.41858
0.25712
0.33527
0.38153
0.19795
0.30697
0.22139
0.52247
0.88970
0.98542
1.31738
1.12384
0.97137
0.59094
0.29930
0.53310
0.33945
0.33883
0.39210
0.23515
0.43696
0.27996
0.34294
0.39855
0.25127
0.44071
0.30564
0.25330
0.31368
0.16137
0.35314
0.20078
0.26106
0.32131
0.16887
0.36050
0.20801
0.26815
0.32827
0.17570
0.36719
0.21456
0.27457
0.33455
0.18184
0.37320
0.22043
0.28030
0.34014
0.18729
0.37850
0.22559
0.28532
0.34501
0.19202
0.38309
0.23003
0.28961
0.34917
0.19602
0.38695
0.23375
0.29318
0.35258
0.19929
0.39007
0.23672
0.29601
0.35526
0.20182
0.39245
0.23895
0.29808
0.35719
0.20360
0.39407
0.24042
0.29941
0.35836
0.20462
0.39495
0.24114
0.29998
0.35878
0.20489
0.39506
0.24111
0.29979
0.35844
0.20439
0.39442
0.24031
0.29884
0.35734
0.20314
0.39302
0.23876
0.29714
0.35549
0.20114
0.39086
0.23646
0.29469
0.35288
0.19839
0.38796
0.23341
0.29149
0.34954
0.19490
0.38432
0.22962
0.28756
0.34546
1.15079
1.24320
0.68665
0.47948
0.43467
0.31108
0.47458
0.30820
0.35160
0.41776
0.25414
0.43175
0.27947
0.33698
0.39161
0.25064
0.43380
0.28994
0.35586
0.41890
0.24931
0.43804
0.29119
0.36267
0.43698
0.30715
0.52993
0.38580
0.46285
0.51424
0.37289
0.59269
0.45414
0.52822
0.58233
0.43516
0.58647
0.42215
0.41919
0.43330
0.24042
0.40301
0.24427
0.29533
0.29223
0.13343
0.37283
0.20543
0.26778
0.31585
0.13985
0.33071
0.22019
0.22544
0.28481
0.13720
0.38209
0.21734
0.22819
0.30456
0.16254
0.35606
0.21116
0.27605
0.34093
0.16463
0.35521
0.17318
0.24939
0.30848
0.14065
0.33399
0.19177
0.25080
0.34116
0.15330
0.27819
0.14729
0.21195
0.27659
0.12285
0.28186
0.11386
0.22688
0.22023
0.03509
0.22822
0.08580
0.11614
0.17495
0.04104
0.24836
0.09734
0.18460
0.21773
0.00684
0.23976
0.06589
0.12177
0.16340
-0.01619
0.18819
0.03708
0.07868
0.15161
-0.01377
0.17633
0.03088
0.06675
0.15960
0.01983
0.27828
0.26956
0.56467
0.87116
0.93650
1.01260
0.45970
0.21348
0.16669
-0.01585
0.14286
-0.04822
0.04173
0.08040
-0.09075
0.09360
-0.01487
0.04089
0.10236
-0.06594
0.13266
-0.01854
0.04008
0.10440
-0.04679
0.16321
-0.09338
-0.03760
0.01819
-0.13868
0.04855
-0.10831
-0.05251
0.00330
-0.15354
0.03372
-0.12312
-0.06728
-0.01144
-0.16825
0.01904
-0.13776
-0.08189
-0.02600
-0.18278
0.00455
-0.15220
-0.09628
-0.04036
-0.19708
-0.00970
-0.16641
-0.11044
-0.05446
-0.21113
-0.02369
-0.18034
-0.12431
-0.06827
-0.22488
-0.03738
-0.19397
-0.13787
-0.08177
-0.23831
-0.05074
-0.20725
-0.15109
-0.09491
-0.25137
-0.06373
-0.22016
-0.16392
-0.10766
-0.26404
-0.07631
0.76733
0.48312
0.06650
-0.20601
-0.01820
-0.18527
-0.13155
-0.08862
-0.23402
-0.05421
-0.19957
-0.15656
-0.07570
-0.23721
-0.03298
-0.19444
-0.12431
-0.07307
-0.20204
-0.01122
-0.14285
-0.08612
0.00577
-0.13660
0.08406
-0.05016
0.03912
0.11220
-0.01384
0.17721
0.03500
0.05683
0.08408
-0.12292
0.03853
-0.17383
-0.13026
-0.12720
-0.28273
-0.11575
-0.26042
-0.21942
-0.15677
-0.33379
-0.12074
-0.28690
-0.20793
-0.17218
-0.32474
-0.14129
-0.28569
-0.23361
-0.16259
-0.33934
-0.13142
-0.30541
-0.22077
-0.16852
-0.29648
-0.12086
-0.24606
-0.18560
-0.10889
-0.28536
-0.09878
-0.28060
-0.21999
-0.18908
-0.33567
-0.17598
-0.32792
-0.28338
-0.20368
-0.37715
-0.17677
-0.34748
-0.26225
-0.21754
-0.36924
-0.16060
-0.11495
0.29205
0.72610
0.19077
-0.08152
-0.35734
-0.26370
-0.20518
-0.36739
-0.18277
-0.32871
-0.28898
-0.20867
-0.37344
-0.15353
-0.35878
-0.29998
-0.24114
-0.39495
-0.20462
-0.35836
-0.29941
-0.24042
-0.39407
-0.20360
-0.35719
-0.29808
-0.23895
-0.39245
-0.20182
-0.35526
-0.29601
-0.23672
-0.39007
-0.19929
-0.35258
-0.29318
-0.23375
-0.38695
-0.19602
-0.34917
-0.28961
-0.23003
-0.38309
-0.19202
-0.34501
-0.28532
-0.22559
-0.37850
-0.18729
-0.34014
-0.28030
-0.22043
-0.37320
-0.18184
-0.33455
-0.27457
-0.21456
-0.36719
-0.17570
-0.32827
-0.26815
-0.20801
-0.36050
-0.16887
-0.32131
-0.26106
-0.20078
-0.35314
-0.16137
-0.31368
-0.25330
-0.19289
-0.34512
-0.15323
-0.30541
-0.24490
-0.18437
-0.33647
-0.14446
-0.29652
-0.23589
-0.17523
-0.32722
-0.13508
-0.28702
-0.22628
-0.16551
-0.31738
-0.12513
-0.27695
-0.21609
-0.15521
-0.30697
-0.11461
-0.26633
-0.20536
-0.14438
-0.29603
-0.10357
-0.25518
-0.19412
-0.13303
-0.28458
-0.09203
-0.24354
-0.18238
0.80422
0.39309
0.46143
0.04481
0.02595
-0.03156
-0.18846
-0.00677
-0.15259
-0.09954
-0.03266
-0.16462
0.03096
-0.11202
-0.03127
0.04121
-0.09343
0.09117
-0.05174
-0.03997
0.01600
-0.14620
0.04399
-0.09885
-0.02073
0.06293
-0.06882
0.12696
-0.02688
0.04302
0.06872
-0.09061
0.06103
-0.12314
-0.05044
-0.01364
-0.16739
0.02848
-0.10315
-0.06908
-0.01290
-0.15833
0.05139
-0.05535
0.02020
0.05983
-0.08832
0.10210
-0.00738
0.07924
0.19073
0.06193
0.28828
0.14845
0.23508
0.26924
0.09902
0.27291
0.12203
0.18382
0.21799
0.05883
0.27416
0.13434
0.17127
0.20268
-0.00344
0.10415
-0.04119
0.01784
0.11277
-0.02429
0.18274
0.07883
0.15166
0.23001
0.08188
0.30271
0.37281
0.81026
1.10683
0.80951
0.81760
0.45674
0.38035
0.31501
0.09225
0.24397
0.09578
0.14643
0.19431
0.05163
0.26684
0.12413
0.18856
0.26126
-0.00025
0.19282
0.04178
0.10339
0.16500
0.01393
0.20694
0.05585
0.11741
0.17896
0.02783
0.22079
0.06964
0.13113
0.19262
0.04143
0.23432
0.08310
0.14453
0.20594
0.05468
0.24749
0.09620
0.15755
0.21889
0.06755
0.26028
0.10891
0.17018
0.23143
0.08001
0.27266
0.12120
0.18238
0.24354
0.09203
0.28458
0.13303
0.19412
0.25518
0.10357
0.29603
0.14438
0.20536
0.26633
0.11461
0.30697
0.15521
0.21609
0.27695
0.12513
0.31738
0.16551
0.22628
0.28702
0.13508
0.32722
0.17523
0.23589
0.29652
0.14446
0.33647
0.18437
0.24490
0.30541
0.15323
0.34512
0.19289
0.25330
0.31368
0.16137
0.35314
0.20078
0.26106
0.32131
0.16887
0.36050
0.20801
0.26815
0.32827
0.17570
0.36719
0.21456
0.27457
0.33455
0.18184
0.37320
0.22043
0.28030
0.34014
0.18729
1.34564
1.22559
1.11630
0.93187
0.54882
0.63191
0.37557
0.37882
0.46654
0.34626
0.51840
0.35581
0.43403
0.51221
0.34953
0.53561
0.37287
0.46502
0.53366
0.37553
0.57555
0.44083
0.48588
0.52151
0.39139
0.61004
0.45639
0.50129
0.56963
0.43467
0.61091
0.47119
0.53941
0.62638
0.45841
0.62511
0.46176
0.52514
0.56970
0.37810
0.54465
0.38116
0.40682
0.43246
0.26418
0.46344
0.29979
0.34878
0.38835
0.27156
0.43312
0.25524
0.32755
0.38575
0.23125
0.41613
0.25219
0.31027
0.37301
0.19490
0.39371
0.24371
0.31573
0.34546
0.19067
0.42221
0.24858
0.29229
0.36413
0.21390
0.41242
0.23866
0.29161
0.37270
0.22232
0.39254
0.22802
0.30901
0.37118
0.18780
0.40014
0.25896
0.31164
0.35959
0.20425
0.41175
0.25636
0.29012
0.34734
0.22473
0.40393
0.22024
0.29613
0.36260
0.21639
0.38139
0.24452
0.35784
0.41950
0.24030
0.42865
0.28696
0.33914
0.38190
0.23544
0.42837
0.23962
0.26351
0.32493
0.18776
0.38057
0.21988
0.31408
0.50216
0.60901
1.04585
1.02589
1.15286
1.16243
0.78091
0.72000
0.38069
0.33385
0.30576
0.15420
0.37957
0.22327
0.26084
0.32656
0.19369
0.38611
0.21564
0.27659
0.36570
0.21866
0.36874
0.23575
0.31541
0.37627
0.21506
0.23831
0.08177
0.13787
0.19397
0.03738
0.22488
0.06827
0.12431
0.18034
0.02369
0.21113
0.05446
0.11044
0.16641
0.00970
0.19708
0.04036
0.09628
0.15220
-0.00455
0.18278
0.02600
0.08189
0.13776
-0.01904
0.16825
0.01144
0.06728
0.12312
-0.03372
0.15354
-0.00330
0.05251
0.10831
-0.04855
0.13868
-0.01819
0.03760
0.09338
-0.06350
0.12371
-0.03317
0.02260
0.07837
-0.07853
0.10867
-0.04822
0.93500
1.06330
0.53335
0.28703
0.03169
0.06500
0.09140
-0.05513
0.17179
0.11161
0.30555
0.45114
0.30288
0.50564
0.34012
0.39763
0.46724
0.29655
0.45097
0.29583
0.35337
0.39363
0.21606
0.40677
0.24476
0.28160
0.30635
0.14781
0.33856
0.18521
0.24281
0.31078
0.17646
0.36898
0.22777
0.31132
0.37761
0.23297
0.43244
0.28610
0.35070
0.42223
0.25519
0.45299
0.30498
0.34892
0.37732
0.24317
0.43757
0.26372
0.31636
0.38455
0.22801
0.40695
0.24525
0.30660
0.37314
0.20286
0.38878
0.24098
0.30931
0.35521
0.19882
0.39346
0.24056
0.28999
0.33942
0.19349
0.39167
0.23886
0.29701
0.36727
0.22834
0.40071
0.23936
0.34596
0.41805
0.23086
0.40333
0.27490
0.35224
0.38644
0.18553
0.37538
0.20215
0.23816
0.29491
0.13730
0.31517
0.15242
0.21617
0.27995
0.12590
0.31598
0.15680
0.20858
0.26902
0.21872
0.60236
0.48303
0.62474
0.76821
0.18954
-0.04501
-0.26439
-0.23826
-0.20002
-0.34678
-0.11660
-0.20632
-0.00907
0.16574
0.03639
0.22870
0.08903
0.15342
0.20748
0.04717
0.23444
0.08455
-0.27752
-0.21988
-0.37486
-0.18573
-0.34066
-0.28290
-0.22511
-0.37995
-0.19067
-0.34546
-0.28756
-0.22962
-0.38432
-0.19490
-0.34954
-0.29149
-0.23341
-0.38796
-0.19839
-0.35288
-0.29469
-0.23646
-0.39086
-0.20114
-0.35549
-0.29714
-0.23876
-0.39302
-0.20314
-0.35734
-0.29884
-0.24031
-0.39442
-0.20439
-0.35844
-0.29979
-0.24111
-0.39506
-0.20489
-0.35878
-0.29998
-0.24114
-0.39495
-0.20462
-0.35836
-0.29941
-0.24042
-0.39407
-0.20360
-0.35719
-0.29808
-0.23895
-0.39245
-0.20182
-0.35526
-0.29601
-0.23672
-0.39007
-0.19929
-0.35258
-0.29318
-0.23375
-0.38695
-0.19602
-0.34917
-0.28961
-0.23003
0.04052
0.59965
0.65499
-0.02837
-0.22559
-0.10072
0.27799
0.18070
0.19192
0.33512
0.16152
0.40844
0.24184
0.32265
0.36182
0.23003
0.40069
0.29673
0.34296
0.44477
0.26450
0.49085
0.33147
0.42644
0.46589
0.36214
0.56085
0.45021
0.51753
0.63350
0.48821
0.74260
0.61820
0.71343
0.76008
0.62880
0.75832
0.57848
0.50717
0.57477
0.35334
0.54547
0.34492
0.40567
0.44561
0.30068
0.48598
0.35499
0.36724
0.40729
0.24164
0.46178
0.28922
0.37797
0.41812
0.30119
0.45199
0.35593
0.38922
0.47114
0.29180
0.49131
0.26340
0.39401
0.41353
0.31762
0.45471
0.31718
0.35760
0.41887
0.25360
0.47412
0.26722
0.38411
0.40380
0.29417
0.45227
0.32184
0.34853
0.44468
0.26568
0.48635
0.31433
0.40359
0.48592
0.36254
0.53467
0.42521
0.44509
0.45804
0.27222
0.52079
0.32111
0.46605
0.44433
0.25163
0.41692
0.33534
0.34144
0.42394
0.24517
0.49384
0.30120
0.36984
0.40376
0.32920
0.55013
0.48252
0.41925
0.42543
0.08007
0.55103
0.59456
0.07299
0.03058
0.13663
0.45484
0.35950
0.41434
0.53862
0.34607
0.56012
0.39536
0.51965
0.53977
0.43751
0.58213
0.49376
0.52083
0.62429
0.43870
0.10415
-0.04672
0.01507
0.07686
-0.07401
0.11921
-0.03167
0.03011
0.09189
-0.05900
0.13420
-0.01669
0.04507
0.10683
-0.04408
0.14910
-0.00182
0.05991
0.12164
-0.02929
0.16386
0.01290
0.07461
0.13630
-0.01467
0.17844
0.02745
0.08911
0.15077
-0.00025
0.19282
0.04178
0.10339
0.16500
0.01393
0.20694
0.05585
0.11741
0.17896
0.02783
0.22079
0.06964
0.13113
0.19262
0.04143
0.23432
0.08310
0.14453
0.20594
0.05468
0.24749
0.09620
0.15755
0.21889
0.06755
0.26028
0.82572
0.71000
0.51462
0.20980
0.33756
0.19789
0.20893
0.27599
0.10088
0.32883
0.15368
0.19412
0.25813
0.13012
0.36388
0.22697
0.34401
0.43152
0.32700
0.52821
0.40005
0.45798
0.53654
0.40831
0.57991
0.43984
0.49176
0.56726
0.39172
0.55731
0.38762
0.46303
0.50006
0.38045
0.53411
0.40266
0.45434
0.52960
0.36267
0.56636
0.37873
0.48634
0.52312
0.38851
0.56848
0.43382
0.46459
0.51305
0.37241
0.56109
0.39680
0.53954
0.55246
0.40579
0.60908
0.45350
0.49876
0.55874
0.42668
0.60919
0.42692
0.51629
0.54958
0.39083
0.58204
0.44093
0.48591
0.54265
0.39556
0.60728
0.43652
0.57280
0.73560
0.71520
1.00642
1.07446
1.18699
1.35258
1.12260
1.10099
0.57006
0.52609
0.54110
0.36111
0.53109
0.33629
0.36003
0.35719
0.20360
0.39407
0.24042
0.29941
0.35836
0.20462
0.39495
0.24114
0.29998
0.35878
0.20489
0.39506
0.24111
0.29979
0.35844
0.20439
0.39442
0.24031
0.29884
0.35734
0.20314
0.39302
0.23876
0.29714
0.35549
0.20114
0.39086
0.23646
0.29469
0.35288
0.19839
0.38796
0.23341
0.29149
0.34954
0.19490
0.38432
0.22962
0.28756
0.34546
0.19067
0.37995
0.22511
0.28290
0.34066
0.18573
0.37486
0.21988
0.27752
0.33514
0.18007
0.36907
0.21394
0.27145
0.32893
0.17372
0.36258
0.20732
0.26469
0.32203
0.16669
0.35541
0.20002
0.25726
0.31447
0.15900
0.34759
0.19207
0.24918
0.30627
0.15066
0.33913
0.18348
0.24047
0.29743
0.14171
0.33006
0.17429
0.23115
0.28800
0.13216
0.32039
0.16450
0.22125
0.27798
0.12203
0.31015
0.15415
0.21079
0.26742
0.11136
0.29937
0.14326
0.19980
0.25632
0.10016
0.28807
0.13187
0.18831
1.11894
0.93753
0.75637
0.17869
0.26648
0.54294
0.46416
0.64979
0.49759
0.55595
0.61639
0.46624
0.66437
0.50790
0.56618
0.64121
0.49309
0.68275
0.53460
0.60748
0.67824
0.53424
0.73222
0.59657
0.67148
0.73799
0.57925
0.78136
0.63727
0.69115
0.74083
0.58622
0.75893
0.56656
0.59523
0.63019
0.44408
0.60835
0.43481
0.48021
0.53399
0.37090
0.54771
0.39089
0.45303
0.49419
0.34155
0.53300
0.38244
0.43615
0.49406
0.34349
0.53072
0.36756
0.41915
0.47913
0.32854
0.50526
0.34418
0.40205
0.46202
0.29045
0.47765
0.32494
0.38070
0.43018
0.26909
0.46257
0.30567
0.35724
0.41300
0.25820
0.44960
0.28851
0.34218
0.40005
0.24526
0.43247
0.27559
0.34814
0.42490
0.26803
0.46783
0.32146
0.37936
0.42888
0.25736
0.42994
0.27101
0.30798
0.34705
0.19863
0.39011
0.22702
0.27870
0.34716
0.19668
0.37143
0.22306
0.29156
0.36216
0.23898
0.59198
0.67636
0.88956
0.73800
0.11172
-0.02369
-0.02101
0.25724
0.35940
0.19860
0.39239
0.23371
0.29399
0.36268
0.21452
0.39580
0.24767
0.31432
0.38308
0.23500
0.42265
0.28089
0.35390
0.40807
-0.26404
-0.07631
-0.23267
-0.17634
-0.11999
-0.27629
-0.08847
-0.24473
-0.18831
-0.13187
-0.28807
-0.10016
-0.25632
-0.19980
-0.14326
-0.29937
-0.11136
-0.26742
-0.21079
-0.15415
-0.31015
-0.12203
-0.27798
-0.22125
-0.16450
-0.32039
-0.13216
-0.28800
-0.23115
-0.17429
-0.33006
-0.14171
-0.29743
-0.24047
-0.18348
-0.33913
-0.15066
-0.30627
-0.24918
-0.19207
-0.34759
-0.15900
-0.31447
-0.25726
-0.20002
-0.35541
-0.16669
-0.32203
-0.26469
-0.20732
-0.36258
-0.17372
-0.32893
-0.27145
-0.21394
-0.36907
-0.18007
-0.33514
-0.27752
-0.21988
-0.37486
0.81427
0.65543
0.41182
0.11149
-0.14121
0.07743
-0.15368
-0.11339
-0.06524
-0.19646
-0.00507
-0.19690
-0.15842
-0.07098
-0.23532
-0.07902
-0.22373
-0.15183
-0.10926
-0.28127
-0.10721
-0.27525
-0.23256
-0.20158
-0.37540
-0.19923
-0.35342
-0.29884
-0.22270
-0.35528
-0.13981
-0.27037
-0.17259
-0.08651
-0.20719
-0.01506
-0.17874
-0.09254
-0.04545
-0.22078
-0.00893
-0.16658
-0.12524
-0.05843
-0.20621
-0.03334
-0.17519
-0.12000
-0.05695
-0.20654
0.01931
-0.12630
-0.06900
0.03138
-0.09261
0.06294
-0.09622
-0.02704
0.00696
-0.18343
-0.02968
-0.18282
-0.12132
-0.08326
-0.23827
-0.04720
-0.21781
-0.07592
0.21276
0.29273
0.67964
0.54832
0.33614
0.02027
-0.24013
-0.04877
-0.24845
-0.21782
-0.14020
-0.30653
-0.17570
-0.32827
-0.26815
-0.20801
-0.36050
-0.16887
-0.32131
-0.26106
-0.20078
-0.35314
-0.16137
-0.31368
-0.25330
-0.19289
-0.34512
-0.15323
-0.30541
-0.24490
-0.18437
-0.33647
-0.14446
-0.29652
-0.23589
-0.17523
-0.32722
-0.13508
-0.28702
-0.22628
-0.16551
-0.31738
-0.12513
-0.27695
-0.21609
-0.15521
-0.30697
-0.11461
-0.26633
-0.20536
-0.14438
-0.29603
-0.10357
-0.25518
-0.19412
-0.13303
-0.28458
-0.09203
-0.24354
-0.18238
-0.12120
-0.27266
-0.08001
-0.23143
-0.17018
-0.10891
-0.26028
-0.06755
-0.21889
-0.15755
-0.09620
-0.24749
-0.05468
-0.20594
-0.14453
-0.08310
-0.23432
-0.04143
-0.19262
-0.13113
-0.06964
-0.22079
-0.02783
-0.17896
-0.11741
-0.05585
-0.20694
-0.01393
-0.16500
-0.10339
-0.04178
-0.19282
0.00025
-0.15077
-0.08911
-0.02745
-0.17844
0.01467
-0.13630
-0.07461
-0.01290
-0.16386
0.02929
-0.12164
-0.05991
0.00182
-0.14910
0.04408
-0.10683
-0.04507
0.01669
-0.13420
0.05900
-0.09189
-0.03011
0.03167
-0.11921
0.07401
-0.07686
0.97043
0.92715
0.41396
0.30284
0.06502
0.11957
0.14513
-0.00936
0.16937
0.02212
0.07667
0.14208
-0.03778
0.14457
-0.02443
0.03373
0.09189
-0.04451
0.15594
0.01229
0.08492
0.15393
0.01389
0.21431
0.05615
0.15049
0.21222
0.05404
0.23994
0.10348
0.17968
0.27398
0.11939
0.34511
0.18687
0.25578
0.31019
0.16641
0.34137
0.19033
0.25194
0.33166
0.17335
0.37361
0.21527
0.28770
0.34925
0.21262
0.40195
0.24717
0.29418
0.35929
0.19360
0.39374
0.23889
0.31119
0.36174
0.21410
0.39242
0.24837
0.31335
0.37106
0.22697
0.42333
0.25384
0.34047
0.38361
0.23218
0.42846
0.28786
0.34542
0.41383
0.26594
0.46212
0.29607
0.40426
0.70084
0.82096
1.27429
1.14438
0.99884
0.60691
0.31027
0.43016
0.24217
0.28131
0.33130
0.17223
0.34274
0.19811
0.22628
0.30152
0.15682
0.35620
0.20784
0.23589
0.29652
0.14446
0.33647
0.18437
0.24490
0.30541
0.15323
0.34512
0.19289
0.25330
0.31368
0.16137
0.35314
0.20078
0.26106
0.32131
0.16887
0.36050
0.20801
0.26815
0.32827
0.17570
0.36719
0.21456
0.27457
0.33455
0.18184
0.37320
0.22043
0.28030
0.34014
0.18729
0.37850
0.22559
0.28532
0.34501
0.19202
0.38309
0.23003
0.28961
0.34917
0.19602
0.38695
0.23375
0.29318
0.35258
0.19929
0.39007
0.23672
0.29601
0.35526
0.20182
0.39245
0.23895
0.29808
0.35719
0.20360
0.39407
0.24042
0.29941
0.35836
0.20462
0.39495
0.24114
0.29998
0.35878
0.20489
0.39506
0.24111
0.29979
0.35844
0.20439
0.39442
0.24031
0.29884
0.35734
0.20314
0.39302
0.23876
0.29714
0.35549
0.20114
0.39086
0.23646
0.29469
0.35288
0.19839
0.38796
0.23341
0.29149
0.34954
1.19490
1.04189
0.40819
0.46613
0.48202
0.22639
0.40096
0.29233
0.44256
0.59276
0.47984
0.67738
0.52450
0.59055
0.66077
0.49940
0.68629
0.54377
0.60968
0.66506
0.50775
0.69661
0.55185
0.61133
0.66657
0.51963
0.71886
0.56977
0.62911
0.69472
0.55185
0.73625
0.58492
0.65254
0.72643
0.56873
0.76140
0.61836
0.69425
0.76172
0.61020
0.81325
0.67219
0.72695
0.77960
0.61535
0.78888
0.60568
0.63512
0.67294
0.49598
0.66939
0.50079
0.54693
0.60565
0.44749
0.63130
0.47940
0.54224
0.60506
0.44470
0.63471
0.48061
0.53705
0.57666
0.42880
0.61872
0.44982
0.49986
0.55830
0.40194
0.58127
0.42068
0.47904
0.53949
0.37675
0.55389
0.39953
0.45991
0.50977
0.34906
0.54083
0.39269
0.44670
0.49649
0.34621
0.53581
0.36869
0.42473
0.48496
0.33462
0.52625
0.37168
0.43817
0.50254
0.35214
0.55843
0.41851
0.46393
0.50304
0.33998
0.51051
0.33903
0.38441
0.43398
0.28558
0.47077
0.30556
0.35930
0.41723
0.26670
0.45816
0.27401
0.26259
0.34781
0.54599
1.11977
0.73181
0.28970
0.29086
0.07726
0.13422
-0.03317
0.10873
0.27375
0.18198
0.39439
0.24169
0.29746
0.36792
0.21523
0.40872
0.24972
0.31179
0.37175
0.21696
0.40626
0.25777
0.32194
0.38191
-0.12371
0.06350
-0.09338
-0.03760
0.01819
-0.13868
0.04855
-0.10831
-0.05251
0.00330
-0.15354
0.03372
-0.12312
-0.06728
-0.01144
-0.16825
0.01904
-0.13776
-0.08189
-0.02600
-0.18278
0.00455
-0.15220
-0.09628
-0.04036
-0.19708
-0.00970
-0.16641
-0.11044
-0.05446
-0.21113
-0.02369
-0.18034
-0.12431
-0.06827
-0.22488
-0.03738
-0.19397
-0.13787
-0.08177
-0.23831
-0.05074
-0.20725
-0.15109
-0.09491
-0.25137
-0.06373
0.76657
0.79895
0.70136
0.09405
0.00591
-0.07086
-0.03840
-0.04041
-0.24445
-0.02481
-0.17842
-0.10873
-0.07351
-0.21115
-0.02854
-0.18205
-0.13084
-0.06369
-0.21714
-0.03178
-0.19580
-0.11530
-0.06927
-0.19874
-0.03715
-0.17188
-0.09924
-0.04779
-0.20368
0.00312
-0.15272
-0.09057
-0.04697
-0.17091
0.01214
-0.14624
-0.11580
-0.03229
-0.20120
-0.01539
-0.18425
-0.11390
-0.05679
-0.23088
-0.04759
-0.19246
-0.14850
-0.10187
-0.26523
-0.07916
-0.22389
-0.19042
-0.13304
-0.27239
-0.07823
-0.22813
-0.18922
-0.09988
-0.24175
-0.04479
-0.19456
-0.09715
-0.01298
-0.14409
0.02117
-0.11519
-0.07335
-0.03678
-0.20754
-0.05805
-0.23406
-0.20002
-0.16596
-0.30475
-0.11267
-0.27262
-0.24109
-0.23076
-0.38796
0.04299
0.22271
0.59656
0.76354
0.54813
0.50178
-0.12206
-0.21491
-0.09022
-0.30018
-0.15275
-0.32286
-0.26701
-0.21113
-0.35728
-0.15930
-0.31865
-0.26265
-0.19336
-0.39506
-0.20489
-0.35878
-0.29998
-0.24114
-0.39495
-0.20462
-0.35836
-0.29941
-0.24042
-0.39407
-0.20360
-0.35719
-0.29808
-0.23895
-0.39245
-0.20182
-0.35526
-0.29601
-0.23672
-0.39007
-0.19929
-0.35258
-0.29318
-0.23375
-0.38695
-0.19602
-0.34917
-0.28961
-0.23003
-0.38309
-0.19202
-0.34501
-0.28532
-0.22559
-0.37850
-0.18729
-0.34014
-0.28030
-0.22043
-0.37320
-0.18184
-0.33455
-0.27457
-0.21456
-0.36719
-0.17570
-0.32827
-0.26815
-0.20801
-0.36050
-0.16887
-0.32131
-0.26106
-0.20078
-0.35314
-0.16137
-0.31368
-0.25330
-0.19289
-0.34512
-0.15323
-0.30541
-0.24490
-0.18437
-0.33647
-0.14446
-0.29652
-0.23589
-0.17523
-0.32722
-0.13508
-0.28702
-0.22628
-0.16551
-0.31738
-0.12513
-0.27695
-0.21609
-0.15521
-0.30697
-0.11461
-0.26633
-0.20536
-0.14438
-0.29603
-0.10357
-0.25518
-0.19412
0.86697
0.62807
0.50135
-0.19836
-0.14623
0.05651
0.04361
0.26337
0.14507
0.20331
0.30073
0.14333
0.36318
0.20882
0.29124
0.36464
0.24046
0.43328
0.33322
0.39463
0.50124
0.35303
0.57905
0.42786
0.49236
0.54783
0.41777
0.58964
0.43550
0.44885
0.49234
0.29306
0.47704
0.28380
0.32733
0.35280
0.19875
0.37375
0.23779
0.26932
0.34002
0.17999
0.38214
0.21611
0.29889
0.35155
0.21867
0.39978
0.26992
0.32563
0.40544
0.23946
0.46577
0.31486
0.39770
0.45043
0.29351
0.45659
0.31775
0.35543
0.43529
0.25730
0.44751
0.27253
0.35541
0.39310
0.26332
0.43245
0.29965
0.33735
0.41722
0.26334
0.46560
0.29666
0.37351
0.41722
0.29045
0.45053
0.30568
0.38854
0.67622
0.79341
1.12517
0.74535
0.52097
0.10683
-0.03505
0.28163
0.26625
0.38521
0.48911
0.32311
0.54036
0.38640
0.48726
0.54594
0.42509
0.17844
0.02745
0.08911
0.15077
-0.00025
0.19282
0.04178
0.10339
0.16500
0.01393
0.20694
0.05585
0.11741
0.17896
0.02783
0.22079
0.06964
0.13113
0.19262
0.04143
0.23432
0.08310
0.14453
0.20594
0.05468
0.24749
0.09620
0.15755
0.21889
0.06755
0.26028
0.10891
0.17018
0.23143
0.08001
0.27266
0.12120
0.18238
0.24354
0.09203
0.28458
0.13303
0.19412
0.25518
0.10357
0.29603
0.14438
0.20536
0.26633
0.11461
0.30697
0.15521
0.21609
0.27695
0.12513
0.31738
0.16551
0.22628
0.28702
0.13508
0.32722
0.17523
0.23589
0.29652
0.14446
0.33647
0.18437
0.24490
0.30541
0.15323
0.34512
0.19289
0.25330
0.31368
0.16137
0.35314
0.20078
0.26106
0.32131
0.16887
0.36050
0.20801
0.26815
0.32827
0.17570
0.36719
0.21456
0.27457
0.33455
0.18184
1.37320
0.69759
0.34121
0.41374
0.27612
0.42165
0.26113
0.31324
0.36024
0.20725
0.39070
0.23003
0.29977
0.36947
0.20364
0.40218
0.25659
0.31349
0.37543
0.20691
0.40784
0.27733
0.32900
0.37049
0.23989
0.44575
0.28210
0.34123
0.41302
0.28228
0.46768
0.30895
0.38316
0.45481
0.30868
0.49901
0.36551
0.43449
0.50345
0.36225
0.56003
0.42892
0.50537
0.57163
0.42521
0.62030
0.48397
0.56280
0.61622
0.48233
0.66459
0.47988
0.53826
0.59153
0.39404
0.56599
0.40143
0.44697
0.48233
0.30499
0.48949
0.32986
0.38286
0.43076
0.27612
0.46554
0.30323
0.36624
0.42160
0.26682
0.45356
0.30379
0.35904
0.43203
0.27456
0.44085
0.28079
0.36382
0.41636
0.25114
0.47059
0.32815
0.39581
0.44822
0.31585
0.50725
0.32914
0.35860
0.40325
0.22506
0.38333
0.21778
0.28264
0.34239
0.18184
0.36536
0.21745
0.26695
0.32911
0.16082
0.35690
0.21140
0.26077
0.30759
0.15694
0.35036
0.19967
0.24131
0.29815
0.13216
0.32039
0.16450
0.22125
0.27798
0.12203
0.31015
0.15415
0.21079
0.26742
0.11136
0.29937
0.14326
0.19980
0.25632
0.10016
0.28807
0.13187
0.18831
0.24473
0.08847
0.27629
0.11999
0.17634
0.23267
0.07631
0.26404
0.10766
0.16392
0.22016
0.06373
0.25137
0.09491
0.15109
0.20725
0.05074
0.23831
0.08177
0.13787
0.19397
0.03738
0.22488
0.06827
0.12431
0.18034
0.02369
0.21113
0.05446
0.11044
0.16641
0.00970
0.19708
0.04036
0.09628
0.15220
-0.00455
0.18278
0.02600
0.08189
0.13776
-0.01904
0.16825
0.01144
0.06728
0.12312
-0.03372
0.15354
-0.00330
0.05251
0.10831
-0.04855
0.13868
-0.01819
0.03760
0.09338
-0.06350
0.12371
-0.03317
1.00823
0.86429
0.28067
0.20494
-0.00512
0.15265
0.26014
0.08169
0.25021
0.09618
0.16487
0.20340
0.03788
0.23945
0.09261
0.15269
0.20559
0.06882
0.27901
0.13506
0.21096
0.29261
0.15298
0.36464
0.23508
0.31244
0.39842
0.25738
0.46331
0.32803
0.38243
0.43540
0.26278
0.43714
0.26598
0.28737
0.32170
0.15487
0.31346
0.12654
0.17527
0.21108
0.04286
0.22306
0.05773
0.12807
0.18405
0.02163
0.21625
0.05673
0.14006
0.22196
0.07253
0.28158
0.13506
0.15810
0.16967
-0.00986
0.17483
0.01114
0.06299
0.13067
-0.02292
0.15466
0.00829
0.05735
0.09637
0.08366
0.62915
0.76733
0.69004
0.37283
-0.12830
-0.08847
-0.15134
-0.03457
-0.00543
-0.17313
0.01622
-0.15575
-0.10067
-0.04269
-0.20167
-0.11136
-0.26742
-0.21079
-0.15415
-0.31015
-0.12203
-0.27798
-0.22125
-0.16450
-0.32039
-0.13216
-0.28800
-0.23115
-0.17429
-0.33006
-0.14171
-0.29743
-0.24047
-0.18348
-0.33913
-0.15066
-0.30627
-0.24918
-0.19207
-0.34759
-0.15900
-0.31447
-0.25726
-0.20002
-0.35541
-0.16669
-0.32203
-0.26469
-0.20732
-0.36258
-0.17372
-0.32893
-0.27145
-0.21394
-0.36907
-0.18007
-0.33514
-0.27752
-0.21988
-0.37486
-0.18573
-0.34066
-0.28290
-0.22511
-0.37995
-0.19067
-0.34546
-0.28756
-0.22962
-0.38432
-0.19490
-0.34954
-0.29149
-0.23341
-0.38796
-0.19839
-0.35288
-0.29469
-0.23646
-0.39086
-0.20114
-0.35549
-0.29714
-0.23876
-0.39302
-0.20314
-0.35734
-0.29884
-0.24031
-0.39442
-0.20439
-0.35844
-0.29979
-0.24111
-0.39506
-0.20489
-0.35878
-0.29998
-0.24114
-0.39495
-0.20462
-0.35836
-0.29941
-0.24042
-0.39407
-0.20360
-0.35719
-0.29808
-0.23895
-0.39245
-0.20182
-0.35526
-0.29601
-0.23672
-0.39007
-0.19929
-0.35258
-0.29318
-0.23375
0.61305
0.67670
0.00928
-0.23247
-0.16510
-0.29218
-0.12708
-0.29566
-0.22298
-0.18144
-0.32915
-0.13534
-0.28300
-0.22575
-0.16069
-0.31086
-0.11950
-0.27741
-0.19925
-0.13924
-0.29447
-0.10816
-0.24515
-0.17984
-0.10671
-0.26699
-0.07276
-0.21222
-0.15976
-0.10208
-0.24924
-0.04449
-0.20199
-0.12343
-0.05523
-0.19967
-0.00778
-0.16515
-0.10984
-0.05190
-0.20920
-0.02238
-0.17184
-0.11121
-0.04017
-0.21813
-0.01560
-0.14936
-0.10679
-0.03564
-0.19010
0.01513
-0.14708
-0.09142
-0.02794
-0.16671
0.00746
-0.14166
-0.08588
-0.01451
-0.17655
0.01591
-0.12012
-0.03827
0.02541
-0.11575
0.10018
-0.04614
0.00463
0.04763
-0.10643
0.05765
-0.11975
-0.09486
-0.03618
-0.18756
0.00518
-0.16175
-0.08483
-0.03126
-0.19035
0.09597
0.18627
0.61392
0.87275
0.44880
0.20792
-0.15626
-0.07919
-0.01769
-0.20520
-0.00965
-0.16597
-0.11222
-0.05585
-0.19396
-0.00354
-0.15980
-0.09820
-0.02100
-0.19282
0.00025
-0.15077
-0.08911
-0.02745
-0.17844
0.01467
-0.13630
-0.07461
-0.01290
-0.16386
0.02929
-0.12164
-0.05991
0.00182
-0.14910
0.04408
-0.10683
-0.04507
0.01669
-0.13420
0.05900
-0.09189
-0.03011
0.03167
-0.11921
0.07401
-0.07686
-0.01507
0.04672
-0.10415
0.08907
-0.06179
-0.00000
0.06179
-0.08907
0.10415
-0.04672
0.01507
0.07686
-0.07401
0.11921
-0.03167
0.03011
0.09189
-0.05900
0.13420
-0.01669
0.04507
0.10683
-0.04408
0.14910
-0.00182
0.05991
0.12164
-0.02929
0.16386
0.01290
0.07461
0.13630
-0.01467
0.17844
0.02745
0.08911
0.15077
-0.00025
0.19282
0.04178
0.10339
0.16500
0.01393
0.20694
0.05585
0.11741
0.17896
0.02783
0.22079
0.06964
0.13113
0.19262
0.04143
0.23432
0.08310
0.14453
0.20594
0.05468
0.24749
1.08227
0.66452
0.56986
0.28203
0.39399
0.20640
0.25375
0.32336
0.15243
0.34508
0.19362
0.25480
0.31318
0.16445
0.35144
0.20824
0.25818
0.33039
0.17599
0.37681
0.21123
0.28057
0.33597
0.20096
0.38775
0.24435
0.31359
0.38837
0.24490
0.46222
0.31871
0.41569
0.48479
0.35235
0.55284
0.41479
0.47544
0.54721
0.37287
0.55653
0.38214
0.41760
0.46140
0.29251
0.46211
0.31545
0.36472
0.43067
0.27001
0.46456
0.30384
0.36412
0.41044
0.26358
0.44964
0.29993
0.36286
0.43133
0.27319
0.47583
0.31484
0.38599
0.43483
0.28769
0.47348
0.32907
0.38615
0.44320
0.28478
0.48435
0.32587
0.38838
0.43694
0.29230
0.47780
0.32753
0.38154
0.44666
0.29073
0.48723
0.32567
0.39624
0.44451
0.29679
0.47921
0.32864
0.39071
0.45275
0.29374
0.49273
0.33366
0.39279
0.45468
0.30666
0.49435
0.34627
0.40804
0.48371
0.32718
0.53144
0.39713
0.47546
0.51198
0.36087
0.53712
0.37760
0.42235
0.46150
0.28796
0.47798
0.31552
0.37962
0.42976
0.27835
0.47380
0.30283
0.29714
0.51983
0.86131
1.39086
0.76013
0.65680
0.55066
0.32095
0.45203
0.28912
0.33049
0.39968
0.23111
0.42611
0.26583
0.32934
0.38167
0.22967
0.41338
0.26689
0.31354
0.38244
0.22751
0.41943
0.26166
0.33323
0.38250
0.18007
0.36907
0.21394
0.27145
0.32893
0.17372
0.36258
0.20732
0.26469
0.32203
0.16669
0.35541
0.20002
0.25726
0.31447
0.15900
0.34759
0.19207
0.24918
0.30627
0.15066
0.33913
0.18348
0.24047
0.29743
0.14171
0.33006
0.17429
0.23115
0.28800
0.13216
0.32039
0.16450
0.22125
0.27798
0.12203
0.31015
0.15415
0.21079
0.26742
0.11136
0.29937
0.14326
0.19980
1.25632
1.03517
0.91071
0.42327
0.42520
0.46905
0.24570
0.41675
0.25835
0.31260
0.36684
0.20000
0.38983
0.23973
0.28970
0.32079
0.17065
0.36668
0.19554
0.23075
0.27643
0.11573
0.28233
0.09644
0.13787
0.19816
0.03948
0.22488
0.09133
0.18301
0.27049
0.13690
0.35788
0.23685
0.31170
0.37186
0.22354
0.41930
0.25839
0.31431
0.37023
0.22186
0.40710
0.24403
0.31040
0.36208
0.20738
0.39257
0.25672
0.32514
0.38936
0.24721
0.45543
0.35099
0.41309
0.43745
0.29946
0.49298
0.28999
0.30175
0.34286
0.17340
0.34174
0.18276
0.24482
0.31107
0.14999
0.36444
0.38154
0.71194
0.96687
0.90221
0.99087
0.51951
0.29015
0.27674
0.11145
0.25463
0.07677
0.13463
0.18202
0.02933
0.22073
0.04498
0.10076
0.01819
-0.13868
0.04855
-0.10831
-0.05251
0.00330
-0.15354
0.03372
-0.12312
-0.06728
-0.01144
-0.16825
0.01904
-0.13776
-0.08189
-0.02600
-0.18278
0.00455
-0.15220
-0.09628
-0.04036
-0.19708
-0.00970
-0.16641
-0.11044
-0.05446
-0.21113
-0.02369
-0.18034
-0.12431
-0.06827
-0.22488
-0.03738
-0.19397
-0.13787
-0.08177
-0.23831
-0.05074
-0.20725
-0.15109
-0.09491
-0.25137
-0.06373
-0.22016
-0.16392
-0.10766
-0.26404
-0.07631
-0.23267
-0.17634
-0.11999
-0.27629
-0.08847
-0.24473
-0.18831
-0.13187
-0.28807
-0.10016
-0.25632
-0.19980
-0.14326
-0.29937
-0.11136
-0.26742
-0.21079
-0.15415
-0.31015
-0.12203
-0.27798
-0.22125
-0.16450
-0.32039
-0.13216
-0.28800
-0.23115
-0.17429
-0.33006
-0.14171
-0.29743
-0.24047
-0.18348
-0.33913
-0.15066
-0.30627
-0.24918
-0.19207
-0.34759
-0.15900
-0.31447
-0.25726
-0.20002
-0.35541
-0.16669
-0.32203
-0.26469
-0.20732
-0.36258
-0.17372
-0.32893
-0.27145
-0.21394
-0.36907
0.79957
0.63941
0.48838
0.09565
-0.30107
-0.02542
-0.19562
-0.21419
-0.20730
-0.34687
-0.15251
-0.30220
-0.25193
-0.18891
-0.33343
-0.14655
-0.31392
-0.25841
-0.21051
-0.34216
-0.16786
-0.32998
-0.25397
-0.18811
-0.33997
-0.16806
-0.28933
-0.23607
-0.17515
-0.34212
-0.10900
-0.27591
-0.20215
-0.14107
-0.26973
-0.07208
-0.21594
-0.18528
-0.09352
-0.26020
-0.07511
-0.24682
-0.16766
-0.11901
-0.27790
-0.10793
-0.23368
-0.19763
-0.14119
-0.32283
-0.11963
-0.27576
-0.19885
-0.15244
-0.28303
-0.09495
-0.26111
-0.20186
-0.11967
-0.26539
-0.09242
-0.23045
-0.15832
-0.09125
-0.22664
-0.00773
-0.11252
-0.06824
0.00152
-0.17953
0.02427
-0.15163
-0.12756
-0.11109
-0.25127
-0.08042
-0.23581
-0.19633
-0.10847
-0.27905
-0.09278
-0.33455
-0.26439
-0.02118
0.13408
0.59530
0.65392
0.73185
0.61642
-0.03480
-0.05691
-0.14319
-0.09566
-0.12699
-0.29207
-0.10285
-0.25770
-0.20495
-0.11910
-0.27896
-0.09216
-0.25197
-0.18383
-0.11567
-0.33647
-0.14446
-0.29652
-0.23589
-0.17523
-0.32722
-0.13508
-0.28702
-0.22628
-0.16551
-0.31738
-0.12513
-0.27695
-0.21609
-0.15521
-0.30697
-0.11461
-0.26633
-0.20536
-0.14438
-0.29603
-0.10357
-0.25518
-0.19412
-0.13303
-0.28458
-0.09203
-0.24354
-0.18238
-0.12120
-0.27266
-0.08001
-0.23143
-0.17018
-0.10891
-0.26028
-0.06755
-0.21889
-0.15755
-0.09620
-0.24749
-0.05468
-0.20594
-0.14453
-0.08310
-0.23432
-0.04143
-0.19262
-0.13113
-0.06964
-0.22079
-0.02783
-0.17896
-0.11741
-0.05585
-0.20694
-0.01393
-0.16500
-0.10339
-0.04178
-0.19282
0.00025
-0.15077
-0.08911
-0.02745
-0.17844
0.01467
-0.13630
-0.07461
-0.01290
-0.16386
0.02929
-0.12164
-0.05991
0.00182
-0.14910
0.04408
-0.10683
-0.04507
0.01669
-0.13420
0.05900
-0.09189
